{NUMBER OF COLUMNS}  5 
*
* Outer target data for shot "80237, 59.5-60.5s, SP swept -2.5cm, +3.5cm from their stationary position in 80295", 
* where 80295 and 80237 were the same plasma scenario.  Data sent by Karl Krieger via email on 07/04/2012.
*
*     psin         Jsat          ne       Te      Ti  
*               (A m-2)        (m-3)    (eV)    (eV)
{DATA} 
     0.000    2.166e+02    7.217e+16     3.7     3.7
     0.994    2.166e+02    7.217e+16     3.7     3.7
     0.995    4.283e+02    1.620e+17     2.8     2.8
     0.996    1.135e+03    4.168e+17     3.0     3.0
     0.997    2.521e+03    8.726e+17     3.4     3.4
     0.998    7.846e+03    2.444e+18     4.2     4.2
     0.999    1.694e+04    4.314e+18     6.3     6.3
     1.000    3.152e+04    5.435e+18    13.7    13.7
     1.001    4.798e+04    6.086e+18    25.3    25.3
     1.002    5.137e+04    5.740e+18    32.6    32.6
     1.003    5.519e+04    5.951e+18    35.0    35.0
     1.004    6.045e+04    6.479e+18    35.4    35.4
     1.005    6.113e+04    7.013e+18    30.9    30.9
     1.006    6.055e+04    7.281e+18    28.1    28.1
     1.007    5.814e+04    7.325e+18    25.6    25.6
     1.008    5.342e+04    7.089e+18    23.1    23.1
     1.009    4.778e+04    6.615e+18    21.2    21.2
     1.010    4.302e+04    6.120e+18    20.1    20.1
     1.011    4.024e+04    5.878e+18    19.1    19.1
     1.012    3.674e+04    5.508e+18    18.1    18.1
     1.013    3.348e+04    5.170e+18    17.1    17.1
     1.014    3.003e+04    4.758e+18    16.2    16.2
     1.015    2.743e+04    4.626e+18    14.3    14.3
     1.016    2.495e+04    4.341e+18    13.4    13.4
     1.017    2.298e+04    4.012e+18    13.3    13.3
     1.018    2.164e+04    3.878e+18    12.7    12.7
     1.019    2.004e+04    3.724e+18    11.8    11.8
     1.020    1.874e+04    3.565e+18    11.2    11.2
     1.021    1.785e+04    3.301e+18    11.9    11.9
     1.022    1.670e+04    3.361e+18    10.0    10.0
     1.023    1.549e+04    2.935e+18    11.3    11.3
     1.024    1.384e+04    2.886e+18     9.3     9.3
     1.025    1.310e+04    2.688e+18     9.7     9.7
     1.026    1.236e+04    2.475e+18    10.1    10.1
     1.027    1.126e+04    2.361e+18     9.2     9.2
     1.028    1.071e+04    2.315e+18     8.7     8.7
     1.029    9.957e+03    2.170e+18     8.6     8.6
     1.030    9.176e+03    2.016e+18     8.4     8.4
     1.031    8.575e+03    1.812e+18     9.1     9.1
     1.032    8.150e+03    1.819e+18     8.2     8.2
     1.033    7.585e+03    1.665e+18     8.4     8.4
     1.034    7.204e+03    1.650e+18     7.7     7.7
     1.035    7.074e+03    1.615e+18     7.8     7.8
     1.036    6.272e+03    1.528e+18     6.8     6.8
     1.037    6.613e+03    1.437e+18     8.6     8.6
     1.038    6.306e+03    1.434e+18     7.9     7.9
     1.039    6.117e+03    1.434e+18     7.4     7.4
     1.040    5.750e+03    1.325e+18     7.7     7.7
     1.041    5.535e+03    1.391e+18     6.4     6.4
     1.042    5.214e+03    1.303e+18     6.5     6.5
     1.043    4.791e+03    1.180e+18     6.7     6.7
     1.044    4.878e+03    1.154e+18     7.3     7.3
     1.045    4.670e+03    1.079e+18     7.6     7.6
     1.046    4.469e+03    1.023e+18     7.8     7.8
     1.047    4.335e+03    1.171e+18     5.6     5.6
     1.048    4.254e+03    1.069e+18     6.4     6.4
     1.049    4.056e+03    1.021e+18     6.4     6.4
     1.050    4.065e+03    9.948e+17     6.8     6.8
     1.051    3.808e+03    9.325e+17     6.8     6.8
     1.052    3.836e+03    9.780e+17     6.3     6.3
     1.053    3.589e+03    8.961e+17     6.5     6.5
     1.065    1.967e+03    5.869e+17     4.6     4.6
     1.066    1.876e+03    5.190e+17     5.3     5.3
     1.067    1.900e+03    5.718e+17     4.5     4.5
     1.068    1.912e+03    5.263e+17     5.4     5.4
     1.069    1.860e+03    5.368e+17     4.9     4.9
     1.070    1.761e+03    5.162e+17     4.7     4.7
     1.071    1.904e+03    5.535e+17     4.8     4.8
     1.072    1.889e+03    5.307e+17     5.1     5.1
     2.000    1.889e+03    5.307e+17     5.1     5.1
{END}
*
* Original data:
*
* 0.994    2.166e+02    7.217e+16     3.7     3.7
* 0.995    4.283e+02    1.620e+17     2.8     2.8
* 0.996    1.135e+03    4.168e+17     3.0     3.0
* 0.997    2.521e+03    8.726e+17     3.4     3.4
* 0.998    7.846e+03    2.444e+18     4.2     4.2
* 0.999    1.694e+04    4.314e+18     6.3     6.3
* 1.000    3.152e+04    5.435e+18    13.7    13.7
* 1.001    4.798e+04    6.086e+18    25.3    25.3
* 1.002    5.137e+04    5.740e+18    32.6    32.6
* 1.003    5.519e+04    5.951e+18    35.0    35.0
* 1.004    6.045e+04    6.479e+18    35.4    35.4
* 1.005    6.113e+04    7.013e+18    30.9    30.9
* 1.006    6.055e+04    7.281e+18    28.1    28.1
* 1.007    5.814e+04    7.325e+18    25.6    25.6
* 1.008    5.342e+04    7.089e+18    23.1    23.1
* 1.009    4.778e+04    6.615e+18    21.2    21.2
* 1.010    4.302e+04    6.120e+18    20.1    20.1
* 1.011    4.024e+04    5.878e+18    19.1    19.1
* 1.012    3.674e+04    5.508e+18    18.1    18.1
* 1.013    3.348e+04    5.170e+18    17.1    17.1
* 1.014    3.003e+04    4.758e+18    16.2    16.2
* 1.015    2.743e+04    4.626e+18    14.3    14.3
* 1.016    2.495e+04    4.341e+18    13.4    13.4
* 1.017    2.298e+04    4.012e+18    13.3    13.3
* 1.018    2.164e+04    3.878e+18    12.7    12.7
* 1.019    2.004e+04    3.724e+18    11.8    11.8
* 1.020    1.874e+04    3.565e+18    11.2    11.2
* 1.021    1.785e+04    3.301e+18    11.9    11.9
* 1.022    1.670e+04    3.361e+18    10.0    10.0
* 1.023    1.549e+04    2.935e+18    11.3    11.3
* 1.024    1.384e+04    2.886e+18     9.3     9.3
* 1.025    1.310e+04    2.688e+18     9.7     9.7
* 1.026    1.236e+04    2.475e+18    10.1    10.1
* 1.027    1.126e+04    2.361e+18     9.2     9.2
* 1.028    1.071e+04    2.315e+18     8.7     8.7
* 1.029    9.957e+03    2.170e+18     8.6     8.6
* 1.030    9.176e+03    2.016e+18     8.4     8.4
* 1.031    8.575e+03    1.812e+18     9.1     9.1
* 1.032    8.150e+03    1.819e+18     8.2     8.2
* 1.033    7.585e+03    1.665e+18     8.4     8.4
* 1.034    7.204e+03    1.650e+18     7.7     7.7
* 1.035    7.074e+03    1.615e+18     7.8     7.8
* 1.036    6.272e+03    1.528e+18     6.8     6.8
* 1.037    6.613e+03    1.437e+18     8.6     8.6
* 1.038    6.306e+03    1.434e+18     7.9     7.9
* 1.039    6.117e+03    1.434e+18     7.4     7.4
* 1.040    5.750e+03    1.325e+18     7.7     7.7
* 1.041    5.535e+03    1.391e+18     6.4     6.4
* 1.042    5.214e+03    1.303e+18     6.5     6.5
* 1.043    4.791e+03    1.180e+18     6.7     6.7
* 1.044    4.878e+03    1.154e+18     7.3     7.3
* 1.045    4.670e+03    1.079e+18     7.6     7.6
* 1.046    4.469e+03    1.023e+18     7.8     7.8
* 1.047    4.335e+03    1.171e+18     5.6     5.6
* 1.048    4.254e+03    1.069e+18     6.4     6.4
* 1.049    4.056e+03    1.021e+18     6.4     6.4
* 1.050    4.065e+03    9.948e+17     6.8     6.8
* 1.051    3.808e+03    9.325e+17     6.8     6.8
* 1.052    3.836e+03    9.780e+17     6.3     6.3
* 1.053    3.589e+03    8.961e+17     6.5     6.5
* 1.054    0.000e+00         -NaN     0.0     0.0
* 1.055    0.000e+00         -NaN     0.0     0.0
* 1.056    0.000e+00         -NaN     0.0     0.0
* 1.057    0.000e+00         -NaN     0.0     0.0
* 1.058    0.000e+00         -NaN     0.0     0.0
* 1.059    0.000e+00         -NaN     0.0     0.0
* 1.060    0.000e+00         -NaN     0.0     0.0
* 1.061    0.000e+00         -NaN     0.0     0.0
* 1.062    0.000e+00         -NaN     0.0     0.0
* 1.063    0.000e+00         -NaN     0.0     0.0
* 1.064    0.000e+00         -NaN     0.0     0.0
* 1.065    1.967e+03    5.869e+17     4.6     4.6
* 1.066    1.876e+03    5.190e+17     5.3     5.3
* 1.067    1.900e+03    5.718e+17     4.5     4.5
* 1.068    1.912e+03    5.263e+17     5.4     5.4
* 1.069    1.860e+03    5.368e+17     4.9     4.9
* 1.070    1.761e+03    5.162e+17     4.7     4.7
* 1.071    1.904e+03    5.535e+17     4.8     4.8
* 1.072    1.889e+03    5.307e+17     5.1     5.1
